#X,Acoustic Pressure across Frequency(3)_At Node 586,Acoustic Pressure across Frequency(3)_At Node 586
#Frequency(Hz),Pressure(N/mm^2(MPa))_Magnitude,Angle(degrees)_Phase
20.000000,1.628648E-04,-249.688199
30.000000,1.140140E-04,-258.625824
40.000000,8.731964E-05,-264.116023
50.000000,7.077332E-05,-268.093440
60.000000,5.960715E-05,-271.280819
70.000000,5.161321E-05,-274.004838
80.000000,4.564073E-05,-276.433984
90.000000,4.103441E-05,-278.663810
100.000000,3.739492E-05,-280.752493
110.000000,3.446573E-05,-282.737458
120.000000,3.207489E-05,-284.643869
130.000000,3.010320E-05,-286.489288
140.000000,2.846572E-05,-288.286361
150.000000,2.710058E-05,-290.044453
160.000000,2.596195E-05,-291.770682
170.000000,2.501550E-05,-293.470579
180.000000,2.423538E-05,-295.148539
190.000000,2.360218E-05,-296.808128
200.000000,2.310155E-05,-298.452278
210.000000,2.272323E-05,-300.083465
220.000000,2.246049E-05,-301.703802
230.000000,2.230975E-05,-303.315117
240.000000,2.227047E-05,-304.919001
250.000000,2.234518E-05,-306.516895
260.000000,2.253983E-05,-308.110058
270.000000,2.286431E-05,-309.699661
280.000000,2.333340E-05,-311.286758
290.000000,2.396822E-05,-312.872323
300.000000,2.479852E-05,-314.457270
310.000000,2.586615E-05,-316.042459
320.000000,2.723081E-05,-317.628723
330.000000,2.897938E-05,-319.216886
340.000000,3.124229E-05,-320.807823
350.000000,3.422346E-05,-322.402516
360.000000,3.825907E-05,-324.002203
370.000000,4.394401E-05,-325.608683
380.000000,5.243783E-05,-327.225046
390.000000,6.634021E-05,-328.857760
400.000000,9.292816E-05,-330.524393
410.000000,1.632587E-04,-332.299169
420.000000,8.621474E-04,-335.577229
430.000000,2.412487E-04,-154.560566
440.000000,1.020827E-04,-156.511479
450.000000,6.327539E-05,-158.227070
460.000000,4.508506E-05,-159.897438
470.000000,3.455647E-05,-161.553371
480.000000,2.770657E-05,-163.204236
490.000000,2.290380E-05,-164.853768
500.000000,1.935600E-05,-166.503670
510.000000,1.663218E-05,-168.154772
520.000000,1.447777E-05,-169.807479
530.000000,1.273271E-05,-171.461962
540.000000,1.129134E-05,-173.118275
550.000000,1.008108E-05,-174.776411
560.000000,9.050407E-06,-176.436341
570.000000,8.161687E-06,-178.098045
580.000000,7.386783E-06,-179.761538
590.000000,6.704185E-06,-181.426891
600.000000,6.097114E-06,-183.094263
610.000000,5.552236E-06,-184.763924
620.000000,5.058742E-06,-186.436293
630.000000,4.607692E-06,-188.111980
640.000000,4.191517E-06,-189.791842
650.000000,3.803634E-06,-191.477060
660.000000,3.438120E-06,-193.169234
670.000000,3.089420E-06,-194.870541
680.000000,2.752056E-06,-196.583932
690.000000,2.420288E-06,-198.313453
700.000000,2.087683E-06,-200.064735
710.000000,1.746491E-06,-201.845763
720.000000,1.386668E-06,-203.668204
730.000000,9.941964E-07,-205.549682
740.000000,5.480203E-07,-207.518084
750.000000,1.389069E-08,-209.619629
760.000000,6.692267E-07,-31.941239
770.000000,1.623412E-06,-34.652870
780.000000,3.135498E-06,-38.162446
790.000000,6.073019E-06,-43.716678
800.000000,1.460832E-05,-57.605264
810.000000,3.881220E-05,-144.559769
820.000000,1.474378E-05,-197.901937
830.000000,8.902174E-06,-207.933807
840.000000,6.574661E-06,-212.675097
850.000000,5.307780E-06,-215.875860
860.000000,4.495333E-06,-218.424338
870.000000,3.918689E-06,-220.636410
880.000000,3.480008E-06,-222.652370
890.000000,3.128908E-06,-224.544078
900.000000,2.836723E-06,-226.352168
910.000000,2.585866E-06,-228.101440
920.000000,2.364870E-06,-229.807887
930.000000,2.165879E-06,-231.482344
940.000000,1.983268E-06,-233.132418
950.000000,1.812866E-06,-234.763647
960.000000,1.651560E-06,-236.380186
970.000000,1.498322E-06,-237.985750
980.000000,1.340709E-06,-239.579057
990.000000,1.192954E-06,-241.167838
1000.000000,1.044047E-06,-242.750271
1010.000000,8.934676E-07,-244.327975
1020.000000,7.396812E-07,-245.901959
1030.000000,5.810043E-07,-247.472992
1040.000000,4.156234E-07,-249.041693
1050.000000,2.415443E-07,-250.608525
1060.000000,5.652247E-08,-252.173759
1070.000000,1.420256E-07,-73.738102
1080.000000,3.571347E-07,-75.301155
1090.000000,5.924368E-07,-76.863322
1100.000000,8.523568E-07,-78.424641
1110.000000,1.142379E-06,-79.985119
1120.000000,1.469419E-06,-81.544723
1130.000000,1.842360E-06,-83.103387
1140.000000,2.272837E-06,-84.661018
1150.000000,2.776416E-06,-86.217501
1160.000000,3.374448E-06,-87.772709
1170.000000,4.097045E-06,-89.326513
1180.000000,4.988119E-06,-90.878785
1190.000000,6.114332E-06,-92.429423
1200.000000,7.582029E-06,-93.978363
1210.000000,9.571934E-06,-95.525624
1220.000000,1.241795E-05,-97.071392
1230.000000,1.681301E-05,-98.616233
1240.000000,2.446885E-05,-100.161776
1250.000000,4.107644E-05,-101.713748
1260.000000,1.039213E-04,-103.310421
1270.000000,2.849241E-04,-284.445219
1280.000000,6.546777E-05,-286.192930
1290.000000,3.875880E-05,-287.743555
1300.000000,2.839197E-05,-289.274712
1310.000000,2.291222E-05,-290.798088
1320.000000,1.954544E-05,-292.316599
1330.000000,1.728517E-05,-293.831395
1340.000000,1.567831E-05,-295.343106
1350.000000,1.449095E-05,-296.852150
1360.000000,1.359033E-05,-298.358895
1370.000000,1.289562E-05,-299.863674
1380.000000,1.235501E-05,-301.366818
1390.000000,1.193389E-05,-302.868681
1400.000000,1.160846E-05,-304.369618
1410.000000,1.136204E-05,-305.870013
1420.000000,1.118277E-05,-307.370255
1430.000000,1.106228E-05,-308.870763
1440.000000,1.099476E-05,-310.371972
1450.000000,1.097643E-05,-311.874326
1460.000000,1.100522E-05,-313.378292
1470.000000,1.108053E-05,-314.884352
1480.000000,1.120324E-05,-316.393000
1490.000000,1.137578E-05,-317.904760
1500.000000,1.160231E-05,-319.420166
1510.000000,1.188918E-05,-320.939797
1520.000000,1.224553E-05,-322.464260
1530.000000,1.268437E-05,-323.994245
1540.000000,1.322427E-05,-325.530522
1550.000000,1.389216E-05,-327.074035
1560.000000,1.472813E-05,-328.625977
1570.000000,1.579421E-05,-330.187995
1580.000000,1.719116E-05,-331.762549
1590.000000,1.909401E-05,-333.353678
1600.000000,2.183527E-05,-334.968810
1610.000000,2.613306E-05,-336.623738
1620.000000,3.387781E-05,-338.359721
1630.000000,5.217328E-05,-340.331442
1640.000000,1.511301E-04,-344.066054
1650.000000,1.093588E-04,-159.981765
1660.000000,3.358793E-05,-163.223157
1670.000000,1.707960E-05,-165.180548
1680.000000,9.752183E-06,-166.944200
1690.000000,5.521374E-06,-168.646886
1700.000000,2.839791E-06,-170.316911
1710.000000,7.868074E-07,-171.983878
1720.000000,7.857246E-07,-353.644369
1730.000000,2.069361E-06,-355.302857
1740.000000,3.164230E-06,-356.961693
1750.000000,4.132250E-06,-358.621847
1760.000000,5.014458E-06,-0.283847
1770.000000,5.839557E-06,-1.947932
1780.000000,6.628615E-06,-3.614166
1790.000000,7.397828E-06,-5.282497
1800.000000,8.160226E-06,-6.952805
1810.000000,8.926781E-06,-8.624929
1820.000000,9.707177E-06,-10.298685
1830.000000,1.051034E-05,-11.973892
1840.000000,1.134485E-05,-13.650384
1850.000000,1.221931E-05,-15.328013
1860.000000,1.314262E-05,-17.006680
1870.000000,1.412426E-05,-18.686338
1880.000000,1.517467E-05,-20.367018
1890.000000,1.630571E-05,-22.048860
1900.000000,1.753473E-05,-23.732311
1910.000000,1.886673E-05,-25.416858
1920.000000,2.033545E-05,-27.105209
1930.000000,2.198208E-05,-28.799770
1940.000000,2.412032E-05,-30.529130
1950.000000,2.620333E-05,-32.547299
1960.000000,2.752976E-05,-33.822237
1970.000000,3.002355E-05,-35.539450
1980.000000,3.278767E-05,-37.252619
1990.000000,3.591003E-05,-38.971140
2000.000000,3.947186E-05,-40.698598


